#Gap (um) Total heat transfer (W/m2) 
0.001 9.308708673331115e7
0.0010974987654930556 7.739396628168796e7
0.0012045035402587824 6.4365136099229045e7
0.0013219411484660286 5.354822464299453e7
0.0014508287784959402 4.456765637965667e7
0.0015922827933410922 3.7111625506944336e7
0.001747528400007683 3.0921257311271098e7
0.0019179102616724887 2.578162473050164e7
0.00210490414451202 2.151428603541595e7
0.0023101297000831605 1.7971097526391618e7
0.0025353644939701114 1.5029034391869836e7
0.0027825594022071257 1.2585992783611951e7
0.0030538555088334154 1.0557170225918358e7
0.003351602650938841 8.87216453661307e6
0.0036783797718286343 7.472518020121549e6
0.004037017258596553 6.30969278446666e6
0.004430621457583882 5.343385496524901e6
0.004862601580065354 4.540129759516538e6
0.005336699231206307 3.872136805116709e6
0.005857020818056667 3.3163313943687244e6
0.006428073117284319 2.8535530072365236e6
0.007054802310718645 2.4678930877106786e6
0.007742636826811269 2.1461416369996867e6
0.008497534359086447 1.877332797662304e6
0.0093260334688322 1.652364211051099e6
0.010235310218990264 1.463681420888621e6
0.011233240329780276 1.3050173057267051e6
0.012328467394420659 1.1711741020705905e6
0.013530477745798068 1.0578434720716104e6
0.01484968262254465 961456.0148460842
0.016297508346206444 879058.9383551967
0.01788649529057435 808208.069796315
0.019630406500402715 746886.2078106995
0.021544346900318832 693429.2511650478
0.023644894126454073 646467.2872717751
0.02595024211399736 604873.8364537504
0.02848035868435802 567725.5569014078
0.03125715849688237 534267.0366759797
0.034304692863149175 503881.979426835
0.037649358067924674 476069.11636218603
0.04132012400115337 450421.99861182255
0.04534878508128582 426612.1145894424
0.049770235643321115 404374.8502948542
0.05462277217684342 383497.686627618
0.05994842503189409 363810.39638701855
0.0657933224657568 345176.87026877276
0.07220809018385464 327488.3205613495
0.07924828983539174 310657.69396152697
0.08697490026177834 294615.02300925663
0.09545484566618342 279303.70234717376
0.10476157527896648 264677.38488209294
0.11497569953977356 250697.5657637003
0.12618568830660204 237331.69001432724
0.1384886371393873 224551.57864245758
0.15199110829529336 212332.41028977718
0.16681005372000587 200651.86974640316
0.18307382802953684 189489.5907077303
0.2009233002565047 178826.77515595112
0.22051307399030456 168647.2177787177
0.24201282647943823 158931.3182813826
0.2656087782946686 149667.816724646
0.29150530628251764 140842.06513086567
0.3199267137797383 132442.20894982968
0.35111917342151316 124457.85880503771
0.38535285937105296 116880.60886693303
0.42292428743894983 109704.38923671548
0.4641588833612779 102926.06088053503
0.509413801481638 96546.04955303308
0.5590810182512224 90568.32058723917
0.6135907273413174 85000.64209052573
0.6734150657750821 79854.31518184867
0.7390722033525778 75142.3261944564
0.8111308307896871 70876.31404759015
0.8902150854450386 67062.52483542296
0.9770099572992252 63698.151905006234
1.0722672220103233 60767.60057973745
1.1768119524349985 58240.81843888504
1.2915496650148839 56075.786792038896
1.4174741629268053 54222.7557378384
1.5556761439304718 52629.73291835625
1.7073526474706906 51243.213476489225
1.8738174228603839 50022.937889148874
2.0565123083486516 48934.81511656559
2.25701971963392 47949.44770222278
2.4770763559917106 47048.93500920734
2.718588242732941 46221.79049958736
2.983647240283339 45461.21904460918
3.2745491628777286 44763.46540678876
3.5938136638046276 44126.70491280701
3.944206059437655 43549.459966458104
4.328761281083058 43030.52620982317
4.7508101621027965 42568.05536976997
5.214008287999684 42160.417174228125
5.722367659350217 41804.408292447064
6.280291441834253 41496.603889197875
6.892612104349697 41232.117013067385
7.564633275546289 41008.95189185741
8.302175681319746 40821.47947778871
9.111627561154892 40665.09916956573
10.0 40535.938511973574
